-0.152893	
-0.145264	
-0.1474	
-0.161743	
-0.176086	
-0.183105	
-0.19043	
-0.197754	
-0.192566	
-0.180359	
-0.175781	
-0.184021	
-0.196533	
-0.2005	
-0.19989	
-0.197144	
-0.198364	
-0.198975	
-0.202026	
-0.206299	
-0.20752	
-0.203247	
-0.195618	
-0.196838	
-0.205994	
-0.214844	
-0.21637	
-0.206909	
-0.184937	
-0.168762	
-0.178223	
-0.197144	
-0.203552	
-0.188293	
-0.170288	
-0.167542	
-0.176086	
-0.1828	
-0.187988	
-0.19043	
-0.189514	
-0.182495	
-0.171204	
-0.164795	
-0.161438	
-0.158386	
-0.160828	
-0.169067	
-0.174561	
-0.175171	
-0.175476	
-0.17334	
-0.169067	
-0.158997	
-0.143738	
-0.133972	
-0.132141	
-0.141907	
-0.158081	
-0.171814	
-0.174866	
-0.169373	
-0.154419	
-0.142822	
-0.143127	
-0.151978	
-0.158081	
-0.156555	
-0.144958	
-0.127563	
-0.107422	
-0.093689	
-0.0970459	
-0.110168	
-0.122375	
-0.126648	
-0.118103	
-0.102539	
-0.0952148	
-0.100403	
-0.102234	
-0.101624	
-0.102539	
-0.106506	
-0.111389	
-0.114136	
-0.111389	
-0.105591	
-0.106201	
-0.107422	
-0.105896	
-0.100098	
-0.0952148	
-0.0918579	
-0.0839233	
-0.078125	
-0.0790405	
-0.0817871	
-0.0823975	
-0.0866699	
-0.0875854	
-0.0836182	
-0.0796509	
-0.0759888	
-0.0717163	
-0.0714111	
-0.0787354	
-0.0906372	
-0.0952148	
-0.0796509	
-0.0567627	
-0.0424194	
-0.0418091	
-0.0436401	
-0.0390625	
-0.0317383	
-0.0305176	
-0.0354004	
-0.0415039	
-0.0482178	
-0.0479126	
-0.0424194	
-0.03479	
-0.0302124	
-0.0354004	
-0.0460815	
-0.0469971	
-0.03479	
-0.0231934	
-0.0143433	
-0.0140381	
-0.0149536	
-0.0143433	
-0.0109863	
0.00244141	
0.0140381	
0.0170898	
0.0152588	
0.00640869	
-0.0088501	
-0.0201416	
-0.0250244	
-0.0256348	
-0.0170898	
-0.00854492	
-0.00457764	
-0.00305176	
-0.00183105	
0.00183105	
0.0128174	
0.0213623	
0.0204468	
0.0146484	
0.00854492	
0.0100708	
0.00946045	
0.00213623	
-0.00549316	
-0.00976563	
-0.0146484	
-0.0167847	
-0.0143433	
-0.0149536	
-0.017395	
-0.0222778	
-0.0271606	
-0.0311279	
-0.0326538	
-0.032959	
-0.0344849	
-0.0332642	
-0.027771	
-0.0244141	
-0.0256348	
-0.0259399	
-0.0228882	
-0.0213623	
-0.0213623	
-0.0219727	
-0.0231934	
-0.0259399	
-0.0274658	
-0.0302124	
-0.0305176	
-0.0323486	
-0.0354004	
-0.0320435	
-0.027771	
-0.0292969	
-0.0302124	
-0.0286865	
-0.0302124	
-0.0286865	
-0.022583	
-0.0137329	
-0.00671387	
-0.00854492	
-0.0164795	
-0.0231934	
-0.0262451	
-0.0256348	
-0.0244141	
-0.0241089	
-0.0222778	
-0.0247192	
-0.0384521	
-0.0537109	
-0.0662231	
-0.0747681	
-0.0753784	
-0.0686646	
-0.0604248	
-0.0466919	
-0.0360107	
-0.0338745	
-0.039978	
-0.0543213	
-0.0714111	
-0.0741577	
-0.0619507	
-0.0476074	
-0.0402832	
-0.0439453	
-0.0546265	
-0.071106	
-0.0854492	
-0.0820923	
-0.0695801	
-0.0650024	
-0.0741577	
-0.0869751	
-0.0958252	
-0.098877	
-0.0994873	
-0.100403	
-0.103149	
-0.105286	
-0.102234	
-0.100403	
-0.100403	
-0.0985718	
-0.090332	
-0.0857544	
-0.0888062	
-0.0958252	
-0.104065	
-0.110168	
-0.116272	
-0.123901	
-0.126038	
-0.118713	
-0.108948	
-0.101318	
-0.0976563	
-0.09552	
-0.0924683	
-0.0930786	
-0.0994873	
-0.106201	
-0.112	
-0.116272	
-0.115967	
-0.115356	
-0.119019	
-0.120544	
-0.118103	
-0.107117	
-0.0970459	
-0.0952148	
-0.0952148	
-0.0918579	
-0.0888062	
-0.0857544	
-0.0842285	
-0.0961304	
-0.108643	
-0.113831	
-0.114136	
-0.115662	
-0.116577	
-0.115051	
-0.105286	
-0.0964355	
-0.0970459	
-0.110168	
-0.1297	
-0.145569	
-0.143127	
-0.126038	
-0.107727	
-0.0900269	
-0.0805664	
-0.0750732	
-0.0640869	
-0.0601196	
-0.0671387	
-0.0744629	
-0.0814819	
-0.0933838	
-0.107422	
-0.12207	
-0.129089	
-0.129395	
-0.121765	
-0.0991821	
-0.0778198	
-0.0756836	
-0.0894165	
-0.104675	
-0.114136	
-0.116577	
-0.118103	
-0.12207	
-0.124817	
-0.112915	
-0.0845337	
-0.0650024	
-0.0653076	
-0.0790405	
-0.0967407	
-0.114136	
-0.119934	
-0.115051	
-0.102844	
-0.0930786	
-0.093689	
-0.100708	
-0.108337	
-0.115051	
-0.119324	
-0.12085	
-0.117798	
-0.112915	
-0.105286	
-0.100403	
-0.0915527	
-0.0802612	
-0.0759888	
-0.0860596	
-0.102539	
-0.117188	
-0.12146	
-0.115356	
-0.108948	
-0.104065	
-0.105286	
-0.111694	
-0.117493	
-0.117493	
-0.111084	
-0.102234	
-0.098877	
-0.101929	
-0.0970459	
-0.0891113	
-0.0866699	
-0.0891113	
-0.0964355	
-0.10437	
-0.105591	
-0.107117	
-0.112305	
-0.112305	
-0.10437	
-0.0946045	
-0.0921631	
-0.0958252	
-0.100098	
-0.100708	
-0.102844	
-0.102234	
-0.0933838	
-0.0942993	
-0.104675	
-0.114441	
-0.115051	
-0.106812	
-0.0982666	
-0.0973511	
-0.101929	
-0.111084	
-0.120239	
-0.118103	
-0.107422	
-0.0970459	
-0.0952148	
-0.103149	
-0.114746	
-0.124207	
-0.125427	
-0.116272	
-0.106812	
-0.109863	
-0.114136	
-0.116882	
-0.120544	
-0.118713	
-0.112915	
-0.107422	
-0.104065	
-0.102234	
-0.102844	
-0.101929	
-0.103149	
-0.10376	
-0.104675	
-0.108948	
-0.11322	
-0.116272	
-0.118408	
-0.115967	
-0.105896	
-0.0946045	
-0.0808716	
-0.0674438	
-0.057373	
-0.0491333	
-0.0485229	
-0.0564575	
-0.0671387	
-0.0744629	
-0.0799561	
-0.0796509	
-0.0750732	
-0.0704956	
-0.0619507	
-0.0531006	
-0.0509644	
-0.0552368	
-0.0598145	
-0.06073	
-0.0552368	
-0.0473022	
-0.039978	
-0.0341797	
-0.0271606	
-0.0161743	
-0.00854492	
-0.0109863	
-0.0115967	
0.000915527	
0.010376	
0.0131226	
0.0131226	
0.012207	
0.0158691	
0.017395	
0.0164795	
0.0161743	
0.0180054	
0.0192261	
0.0253296	
0.0314331	
0.0317383	
0.0305176	
0.0247192	
0.017395	
0.0164795	
0.0222778	
0.0299072	
0.0305176	
0.0201416	
0.010376	
0.00732422	
0.00305176	
-0.00549316	
-0.020752	
-0.0357056	
-0.0518799	
-0.0726318	
-0.0848389	
-0.0784302	
-0.0714111	
-0.0750732	
-0.0869751	
-0.102539	
-0.112915	
-0.119019	
-0.122681	
-0.118408	
-0.109863	
-0.107727	
-0.115051	
-0.125427	
-0.132141	
-0.132751	
-0.135193	
-0.136414	
-0.135803	
-0.137939	
-0.142822	
-0.140991	
-0.133972	
-0.128174	
-0.117798	
-0.110779	
-0.111694	
-0.114746	
-0.116272	
-0.119934	
-0.124817	
-0.13092	
-0.137634	
-0.136108	
-0.129395	
-0.125427	
-0.129395	
-0.137939	
-0.138855	
-0.127869	
-0.119629	
-0.118713	
-0.127869	
-0.143738	
-0.152893	
-0.154114	
-0.147095	
-0.136414	
-0.13092	
-0.133667	
-0.137939	
-0.138855	
-0.137634	
-0.128479	
-0.119934	
-0.119019	
-0.127869	
-0.141602	
-0.143738	
-0.134583	
-0.126648	
-0.116577	
-0.109253	
-0.117493	
-0.131836	
-0.140381	
-0.137939	
-0.126038	
-0.116882	
-0.112915	
-0.114746	
-0.119629	
-0.127869	
-0.1297	
-0.126648	
-0.124512	
-0.122986	
-0.134888	
-0.164795	
-0.197449	
-0.21698	
-0.228271	
-0.237122	
-0.249939	
-0.264282	
-0.279236	
-0.289001	
-0.285339	
-0.26947	
-0.246582	
-0.219727	
-0.188904	
-0.151367	
-0.101929	
-0.0436401	
0.0189209	
0.0848389	
0.149841	
0.21637	
0.292053	
0.380554	
0.475464	
0.566406	
0.641174	
0.707092	
0.778809	
0.858765	
0.948181	
1.04095	
1.13403	
1.22009	
1.29181	
1.34094	
1.37665	
1.39862	
1.40869	
1.39069	
1.33667	
1.25916	
1.17645	
1.0733	
0.927429	
0.750122	
0.553589	
0.349121	
0.146179	
-0.039978	
-0.184937	
-0.273438	
-0.300903	
-0.285339	
-0.254517	
-0.231018	
-0.212097	
-0.193481	
-0.181885	
-0.175781	
-0.169373	
-0.156555	
-0.14679	
-0.1474	
-0.15686	
-0.163879	
-0.168457	
-0.171204	
-0.168457	
-0.161743	
-0.152893	
-0.153198	
-0.166016	
-0.179749	
-0.186462	
-0.19043	
-0.19043	
-0.189514	
-0.196228	
-0.204163	
-0.20874	
-0.20874	
-0.204163	
-0.196228	
-0.193176	
-0.192566	
-0.19043	
-0.194702	
-0.203552	
-0.207825	
-0.201111	
-0.192871	
-0.194397	
-0.201111	
-0.205383	
-0.207825	
-0.205994	
-0.194092	
-0.18219	
-0.175781	
-0.178223	
-0.180054	
-0.179138	
-0.180969	
-0.185242	
-0.181274	
-0.169067	
-0.162659	
-0.166321	
-0.170898	
-0.169373	
-0.163574	
-0.161438	
-0.161743	
-0.162964	
-0.165405	
-0.166626	
-0.163574	
-0.160522	
-0.157776	
-0.158386	
-0.157166	
-0.150452	
-0.139465	
-0.132141	
-0.134583	
-0.140686	
-0.14801	
-0.148621	
-0.145874	
-0.141907	
-0.137939	
-0.135193	
-0.133057	
-0.134277	
-0.136719	
-0.141602	
-0.14679	
-0.147095	
-0.141296	
-0.132141	
-0.123291	
-0.113831	
-0.107422	
-0.108643	
-0.111694	
-0.108948	
-0.10437	
-0.0961304	
-0.0927734	
-0.0921631	
-0.0942993	
-0.103149	
-0.110474	
-0.109863	
-0.108337	
-0.110779	
-0.108337	
-0.10498	
-0.100098	
-0.0958252	
-0.0946045	
-0.0949097	
-0.0915527	
-0.0860596	
-0.0830078	
-0.0775146	
-0.0741577	
-0.0750732	
-0.0769043	
-0.0772095	
-0.0744629	
-0.0726318	
-0.0656128	
-0.0549316	
-0.0488281	
-0.0500488	
-0.0442505	
-0.0308228	
-0.0241089	
-0.0244141	
-0.0323486	
-0.0402832	
-0.0454712	
-0.0427246	
-0.0354004	
-0.0292969	
-0.0274658	
-0.0271606	
-0.0289917	
-0.0286865	
-0.0256348	
-0.0262451	
-0.0244141	
-0.0140381	
-0.00640869	
-0.0131226	
-0.0219727	
-0.0238037	
-0.0189209	
-0.012207	
-0.00976563	
-0.0131226	
-0.0143433	
-0.010376	
-0.000610352	
0.0106812	
0.0161743	
0.0109863	
0.0012207	
-0.00823975	
-0.0115967	
-0.0112915	
-0.0112915	
-0.0112915	
-0.00579834	
0.000305176	
0.00549316	
0.00915527	
0.0109863	
0.0131226	
0.00946045	
-0.00610352	
-0.020752	
-0.0250244	
-0.0216675	
-0.0106812	
-0.00396729	
-0.0088501	
-0.0161743	
-0.0216675	
-0.0201416	
-0.0131226	
-0.00732422	
-0.0137329	
-0.0280762	
-0.0354004	
-0.0296021	
-0.0198364	
-0.0158691	
-0.0140381	
-0.0204468	
-0.0247192	
-0.0253296	
-0.0268555	
-0.0317383	
-0.0317383	
-0.0238037	
-0.012207	
-0.00152588	
-0.00488281	
-0.0125122	
-0.0167847	
-0.0180054	
-0.0198364	
-0.0247192	
-0.0341797	
-0.0396729	
-0.0369263	
-0.0317383	
-0.0317383	
-0.0354004	
-0.0314331	
-0.0234985	
-0.0180054	
-0.0201416	
-0.0234985	
-0.0210571	
-0.020752	
-0.0256348	
-0.03479	
-0.0378418	
-0.0326538	
-0.0256348	
-0.0195313	
-0.0164795	
-0.0222778	
-0.0393677	
-0.0509644	
-0.0509644	
-0.0454712	
-0.0466919	
-0.0604248	
-0.0747681	
-0.0772095	
-0.0708008	
-0.0662231	
-0.067749	
-0.0750732	
-0.083313	
-0.0836182	
-0.078125	
-0.0735474	
-0.0698853	
-0.0692749	
-0.0769043	
-0.0857544	
-0.0857544	
-0.0756836	
-0.0640869	
-0.0521851	
-0.0488281	
-0.0616455	
-0.0820923	
-0.0979614	
-0.105896	
-0.105286	
-0.09552	
-0.0912476	
-0.0964355	
-0.103149	
-0.101318	
-0.0912476	
-0.085144	
-0.0863647	
-0.0918579	
-0.0982666	
-0.108032	
-0.109863	
-0.101318	
-0.0921631	
-0.0906372	
-0.0939941	
-0.0949097	
-0.0939941	
-0.0994873	
-0.107422	
-0.108948	
-0.106506	
-0.101318	
-0.0964355	
-0.0912476	
-0.0845337	
-0.0778198	
-0.0656128	
-0.0552368	
-0.0598145	
-0.0808716	
-0.102844	
-0.105896	
-0.0927734	
-0.0848389	
-0.0915527	
-0.101929	
-0.105286	
-0.102234	
-0.100098	
-0.0979614	
-0.101318	
-0.108643	
-0.111084	
-0.10498	
-0.0915527	
-0.0814819	
-0.0787354	
-0.0802612	
-0.0811768	
-0.0808716	
-0.0793457	
-0.0827026	
-0.0921631	
-0.0952148	
-0.0894165	
-0.0823975	
-0.0820923	
-0.0866699	
-0.0946045	
-0.0973511	
-0.093689	
-0.0930786	
-0.0952148	
-0.0997925	
-0.10498	
-0.111084	
-0.115967	
-0.111389	
-0.0994873	
-0.0906372	
-0.083313	
-0.0765991	
-0.0765991	
-0.0793457	
-0.0845337	
-0.085144	
-0.0854492	
-0.0930786	
-0.109863	
-0.12085	
-0.115662	
-0.100403	
-0.083313	
-0.0772095	
-0.0805664	
-0.0842285	
-0.0894165	
-0.09552	
-0.100403	
-0.102844	
-0.103149	
-0.0985718	
-0.0918579	
-0.0842285	
-0.0830078	
-0.0848389	
-0.0836182	
-0.0836182	
-0.090332	
-0.0967407	
-0.105896	
-0.113525	
-0.106201	
-0.0949097	
-0.0881958	
-0.0848389	
-0.0854492	
-0.0875854	
-0.0857544	
-0.0842285	
-0.0906372	
-0.098877	
-0.105591	
-0.105286	
-0.100708	
-0.0946045	
-0.0897217	
-0.0927734	
-0.0985718	
-0.0982666	
-0.0958252	
-0.100098	
-0.104675	
-0.107727	
-0.10498	
-0.0946045	
-0.0863647	
-0.0869751	
-0.0915527	
-0.0946045	
-0.0964355	
-0.0961304	
-0.0973511	
-0.098877	
-0.100403	
-0.107422	
-0.116882	
-0.119019	
-0.110779	
-0.0997925	
-0.0939941	
-0.104675	
-0.122681	
-0.132751	
-0.121155	
-0.100098	
-0.0878906	
-0.0857544	
-0.0881958	
-0.0930786	
-0.105286	
-0.117493	
-0.125122	
-0.126953	
-0.121765	
-0.110474	
-0.0982666	
-0.0930786	
-0.0973511	
-0.101013	
-0.09552	
-0.0915527	
-0.0939941	
-0.0994873	
-0.102844	
-0.0973511	
-0.0869751	
-0.0814819	
-0.0830078	
-0.088501	
-0.0949097	
-0.0933838	
-0.0869751	
-0.0802612	
-0.0732422	
-0.0689697	
-0.0643921	
-0.0616455	
-0.0662231	
-0.0741577	
-0.0698853	
-0.0543213	
-0.0430298	
-0.0430298	
-0.0491333	
-0.0488281	
-0.0442505	
-0.0439453	
-0.0466919	
-0.0479126	
-0.0531006	
-0.0579834	
-0.0552368	
-0.0436401	
-0.0314331	
-0.0234985	
-0.0134277	
-0.000610352	
0.00823975	
0.0112915	
0.0161743	
0.0222778	
0.0265503	
0.0286865	
0.0231934	
0.0216675	
0.0262451	
0.0357056	
0.0411987	
0.0384521	
0.0341797	
0.0354004	
0.0363159	
0.0317383	
0.0296021	
0.0350952	
0.039978	
0.0366211	
0.0268555	
0.0192261	
0.0183105	
0.0195313	
0.0167847	
0.0128174	
0.00732422	
0.00335693	
-0.00244141	
-0.0115967	
-0.0247192	
-0.0424194	
-0.0579834	
-0.0683594	
-0.0714111	
-0.0750732	
-0.0823975	
-0.0918579	
-0.0985718	
-0.10498	
-0.11322	
-0.122681	
-0.123596	
-0.118103	
-0.121155	
-0.130615	
-0.140381	
-0.141907	
-0.135193	
-0.13092	
-0.129089	
-0.125427	
-0.127563	
-0.136719	
-0.140991	
-0.138855	
-0.135498	
-0.141602	
-0.148926	
-0.143433	
-0.131836	
-0.123901	
-0.115662	
-0.108032	
-0.111084	
-0.117798	
-0.124512	
-0.122375	
-0.116882	
-0.120544	
-0.131531	
-0.137329	
-0.138855	
-0.140381	
-0.129395	
-0.111694	
-0.10437	
-0.117188	
-0.140991	
-0.158386	
-0.159912	
-0.152283	
-0.141602	
-0.13031	
-0.12207	
-0.119324	
-0.122681	
-0.131531	
-0.134583	
-0.123596	
-0.10498	
-0.0909424	
-0.0909424	
-0.108948	
-0.131226	
-0.144348	
-0.144348	
-0.139465	
-0.13916	
-0.139771	
-0.136719	
-0.134888	
-0.135193	
-0.135498	
-0.134888	
-0.127563	
-0.120544	
-0.119019	
-0.120239	
-0.1297	
-0.14679	
-0.162354	
-0.178528	
-0.204468	
-0.23468	
-0.26825	
-0.292969	
-0.299988	
-0.30426	
-0.307312	
-0.304565	
-0.289917	
-0.254211	
-0.199585	
-0.148315	
-0.105591	
-0.0619507	
-0.00579834	
0.065918	
0.14679	
0.226135	
0.295105	
0.364075	
0.438843	
0.52002	
0.600891	
0.679932	
0.762939	
0.842896	
0.921326	
1.008	
1.10352	
1.19537	
1.2738	
1.33148	
1.37421	
1.40778	
1.42517	
1.41449	
1.36475	
1.28754	
1.20819	
1.11511	
0.983887	
0.812073	
0.612488	
0.404053	
0.204773	
0.020752	
-0.138855	
-0.260315	
-0.325928	
-0.338745	
-0.309753	
-0.262756	
-0.218506	
-0.188293	
-0.174255	
-0.164795	
-0.156555	
-0.149536	
-0.1474	
-0.14801	
-0.150757	
-0.153503	
-0.157166	
-0.16449	
-0.169983	
-0.175171	
-0.174866	
-0.1651	
-0.162048	
-0.172119	
-0.18219	
-0.184326	
-0.186768	
-0.190735	
-0.193481	
-0.194397	
-0.197449	
-0.202637	
-0.204163	
-0.19989	
-0.194092	
-0.19104	
-0.187988	
-0.185547	
-0.189819	
-0.197754	
-0.204163	
-0.212097	
-0.21759	
-0.215759	
-0.207825	
-0.204468	
-0.207825	
-0.20752	
-0.205383	
-0.199585	
-0.192261	
-0.189819	
-0.19043	
-0.189514	
-0.188904	
-0.188904	
-0.187683	
-0.185547	
-0.180054	
-0.179749	
-0.186157	
-0.190125	
-0.187683	
-0.182495	
-0.173035	
-0.15686	
-0.144348	
-0.138245	
-0.143433	
-0.148621	
-0.144958	
-0.137634	
-0.134583	
-0.142212	
-0.157166	
-0.168457	
-0.168457	
-0.163574	
-0.159607	
-0.160522	
-0.159912	
-0.149536	
-0.134888	
-0.128479	
-0.126343